#    s        x        y     Ue/Vinf    Dstar     Theta      Cf       H       H*        P         m          K          tau         Di
   0.00000  1.00000  0.00147  0.93136  0.017092  0.005623  0.000298    3.0394    1.5193  0.00488  0.01592  0.00690
   0.00903  0.99150  0.00452  0.93830  0.015585  0.005418  0.000423    2.8764    1.5281  0.00477  0.01462  0.00684
   0.02064  0.98053  0.00832  0.94904  0.013755  0.005128  0.000625    2.6822    1.5424  0.00462  0.01305  0.00676
   0.03345  0.96838  0.01237  0.96308  0.011960  0.004789  0.000901    2.4974    1.5607  0.00444  0.01152  0.00668
   0.04726  0.95522  0.01656  0.98038  0.010312  0.004419  0.001255    2.3335    1.5817  0.00425  0.01011  0.00659
   0.06183  0.94127  0.02077  1.00030  0.008887  0.004046  0.001685    2.1966    1.6032  0.00405  0.00889  0.00649
   0.07692  0.92675  0.02491  1.02173  0.007712  0.003692  0.002174    2.0889    1.6234  0.00385  0.00788  0.00639
   0.09236  0.91185  0.02890  1.04295  0.006778  0.003380  0.002700    2.0053    1.6400  0.00368  0.00707  0.00629
   0.10800  0.89667  0.03270  1.06280  0.006055  0.003116  0.003229    1.9433    1.6522  0.00352  0.00644  0.00618
   0.12377  0.88131  0.03627  1.08088  0.005511  0.002893  0.003712    1.9047    1.6603  0.00338  0.00596  0.00607
   0.13964  0.86579  0.03960  1.09653  0.005117  0.002710  0.004105    1.8880    1.6641  0.00326  0.00561  0.00595
   0.15560  0.85014  0.04267  1.10936  0.004853  0.002563  0.004363    1.8932    1.6634  0.00315  0.00538  0.00582
   0.17167  0.83431  0.04549  1.11915  0.004711  0.002449  0.004435    1.9236    1.6576  0.00307  0.00527  0.00569
   0.18794  0.81825  0.04805  1.12597  0.004692  0.002363  0.004275    1.9857    1.6460  0.00300  0.00528  0.00555
   0.20455  0.80179  0.05037  1.12941  0.004847  0.002308  0.003789    2.1001    1.6264  0.00294  0.00547  0.00541
   0.22180  0.78469  0.05256  1.13281  0.005113  0.002256  0.003114    2.2667    1.6022  0.00289  0.00579  0.00525
   0.23951  0.76711  0.05474  1.13950  0.005352  0.002180  0.002490    2.4552    1.5800  0.00283  0.00610  0.00510
   0.25750  0.74925  0.05688  1.14798  0.005585  0.002093  0.001892    2.6693    1.5603  0.00276  0.00641  0.00494
   0.27563  0.73124  0.05897  1.15740  0.005793  0.002001  0.001368    2.8944    1.5448  0.00268  0.00670  0.00479
   0.29384  0.71314  0.06100  1.16673  0.005950  0.001915  0.000956    3.1070    1.5341  0.00261  0.00694  0.00467
   0.31209  0.69500  0.06297  1.17359  0.006029  0.001852  0.000711    3.2547    1.5372  0.00255  0.00708  0.00460
   0.33035  0.67684  0.06486  1.17638  0.006022  0.001825  0.000644    3.3003    1.5359  0.00253  0.00708  0.00456
   0.34860  0.65867  0.06667  1.17957  0.005962  0.001795  0.000619    3.3225    1.5354  0.00250  0.00703  0.00452
   0.36685  0.64051  0.06841  1.18304  0.005867  0.001763  0.000622    3.3283    1.5352  0.00247  0.00694  0.00448
   0.38508  0.62235  0.07006  1.18673  0.005746  0.001730  0.000647    3.3222    1.5354  0.00244  0.00682  0.00444
   0.40329  0.60421  0.07164  1.19062  0.005607  0.001696  0.000689    3.3071    1.5357  0.00240  0.00668  0.00439
   0.42147  0.58609  0.07312  1.19469  0.005456  0.001661  0.000747    3.2853    1.5363  0.00237  0.00652  0.00435
   0.43963  0.56799  0.07452  1.19894  0.005295  0.001625  0.000820    3.2587    1.5371  0.00234  0.00635  0.00430
   0.45775  0.54991  0.07583  1.20334  0.005129  0.001589  0.000905    3.2286    1.5379  0.00230  0.00617  0.00426
   0.47584  0.53187  0.07704  1.20791  0.004960  0.001552  0.001004    3.1962    1.5390  0.00226  0.00599  0.00421
   0.49389  0.51385  0.07816  1.21261  0.004789  0.001514  0.001114    3.1624    1.5401  0.00223  0.00581  0.00416
   0.51190  0.49588  0.07917  1.21745  0.004618  0.001476  0.001237    3.1280    1.5414  0.00219  0.00562  0.00411
   0.52986  0.47794  0.08008  1.22242  0.004449  0.001438  0.001372    3.0933    1.5427  0.00215  0.00544  0.00405
   0.54777  0.46004  0.08088  1.22750  0.004282  0.001400  0.001519    3.0590    1.5442  0.00211  0.00526  0.00400
   0.56562  0.44220  0.08157  1.23268  0.004118  0.001361  0.001677    3.0253    1.5457  0.00207  0.00508  0.00394
   0.58342  0.42441  0.08213  1.23794  0.003957  0.001322  0.001848    2.9925    1.5472  0.00203  0.00490  0.00388
   0.60116  0.40668  0.08257  1.24327  0.003799  0.001283  0.002030    2.9608    1.5488  0.00198  0.00472  0.00382
   0.61882  0.38902  0.08288  1.24866  0.003645  0.001244  0.002226    2.9302    1.5505  0.00194  0.00455  0.00376
   0.63642  0.37143  0.08305  1.25409  0.003495  0.001205  0.002434    2.9008    1.5521  0.00189  0.00438  0.00369
   0.65393  0.35391  0.08309  1.25953  0.003349  0.001166  0.002657    2.8726    1.5538  0.00185  0.00422  0.00362
   0.67135  0.33649  0.08297  1.26498  0.003206  0.001126  0.002894    2.8458    1.5555  0.00180  0.00406  0.00355
   0.68868  0.31916  0.08270  1.27041  0.003066  0.001087  0.003147    2.8201    1.5571  0.00175  0.00390  0.00347
   0.70591  0.30194  0.08227  1.27580  0.002930  0.001048  0.003417    2.7958    1.5588  0.00171  0.00374  0.00339
   0.72302  0.28485  0.08167  1.28113  0.002798  0.001009  0.003705    2.7726    1.5604  0.00166  0.00358  0.00331
   0.74000  0.26788  0.08089  1.28637  0.002668  0.000970  0.004013    2.7506    1.5620  0.00160  0.00343  0.00322
   0.75683  0.25107  0.07993  1.29150  0.002541  0.000931  0.004344    2.7297    1.5636  0.00155  0.00328  0.00314
   0.77350  0.23444  0.07878  1.29648  0.002417  0.000892  0.004700    2.7099    1.5651  0.00150  0.00313  0.00304
   0.78999  0.21802  0.07743  1.30129  0.002295  0.000853  0.005084    2.6912    1.5666  0.00144  0.00299  0.00294
   0.80625  0.20183  0.07588  1.30588  0.002175  0.000814  0.005499    2.6735    1.5681  0.00139  0.00284  0.00284
   0.82224  0.18593  0.07412  1.31021  0.002058  0.000775  0.005950    2.6567    1.5696  0.00133  0.00270  0.00273
   0.83792  0.17038  0.07215  1.31421  0.001943  0.000736  0.006442    2.6408    1.5709  0.00127  0.00255  0.00262
   0.85321  0.15525  0.06998  1.31784  0.001830  0.000697  0.006981    2.6257    1.5723  0.00121  0.00241  0.00251
   0.86801  0.14063  0.06761  1.32102  0.001720  0.000659  0.007572    2.6114    1.5736  0.00115  0.00227  0.00239
   0.88223  0.12664  0.06506  1.32365  0.001612  0.000621  0.008221    2.5977    1.5749  0.00109  0.00213  0.00227
   0.89574  0.11340  0.06237  1.32567  0.001508  0.000583  0.008936    2.5845    1.5761  0.00103  0.00200  0.00214
   0.90844  0.10102  0.05956  1.32696  0.001407  0.000547  0.009722    2.5718    1.5774  0.00096  0.00187  0.00202
   0.92022  0.08959  0.05670  1.32745  0.001312  0.000512  0.010582    2.5594    1.5786  0.00090  0.00174  0.00189
   0.93103  0.07917  0.05381  1.32706  0.001221  0.000479  0.011520    2.5473    1.5799  0.00084  0.00162  0.00177
   0.94085  0.06978  0.05095  1.32569  0.001135  0.000448  0.012540    2.5351    1.5811  0.00079  0.00151  0.00165
   0.94972  0.06136  0.04814  1.32329  0.001055  0.000418  0.013645    2.5229    1.5824  0.00073  0.00140  0.00153
   0.95771  0.05386  0.04540  1.31976  0.000981  0.000391  0.014840    2.5106    1.5837  0.00068  0.00129  0.00142
   0.96489  0.04719  0.04275  1.31499  0.000911  0.000365  0.016130    2.4980    1.5851  0.00063  0.00120  0.00132
   0.97135  0.04126  0.04018  1.30885  0.000847  0.000341  0.017523    2.4850    1.5865  0.00058  0.00111  0.00121
   0.97720  0.03597  0.03769  1.30115  0.000786  0.000318  0.019026    2.4717    1.5880  0.00054  0.00102  0.00111
   0.98250  0.03125  0.03528  1.29167  0.000730  0.000297  0.020646    2.4580    1.5896  0.00050  0.00094  0.00102
   0.98734  0.02702  0.03293  1.28009  0.000677  0.000277  0.022392    2.4438    1.5913  0.00045  0.00087  0.00092
   0.99177  0.02322  0.03064  1.26604  0.000627  0.000258  0.024268    2.4290    1.5930  0.00041  0.00079  0.00083
   0.99586  0.01981  0.02839  1.24904  0.000580  0.000240  0.026272    2.4138    1.5949  0.00037  0.00072  0.00075
   0.99964  0.01675  0.02618  1.22849  0.000536  0.000224  0.028398    2.3980    1.5969  0.00034  0.00066  0.00066
   1.00315  0.01399  0.02399  1.20364  0.000495  0.000208  0.030621    2.3817    1.5990  0.00030  0.00060  0.00058
   1.00644  0.01152  0.02183  1.17360  0.000457  0.000193  0.032897    2.3651    1.6012  0.00027  0.00054  0.00050
   1.00952  0.00931  0.01968  1.13727  0.000421  0.000179  0.035148    2.3481    1.6035  0.00023  0.00048  0.00042
   1.01242  0.00736  0.01753  1.09341  0.000389  0.000167  0.037250    2.3310    1.6058  0.00020  0.00042  0.00035
   1.01517  0.00564  0.01538  1.04061  0.000359  0.000155  0.039023    2.3140    1.6082  0.00017  0.00037  0.00028
   1.01778  0.00416  0.01324  0.97747  0.000332  0.000145  0.040219    2.2975    1.6106  0.00014  0.00032  0.00022
   1.02027  0.00290  0.01109  0.90274  0.000309  0.000135  0.040531    2.2817    1.6129  0.00011  0.00028  0.00016
   1.02265  0.00188  0.00894  0.81569  0.000289  0.000128  0.039630    2.2673    1.6151  0.00008  0.00024  0.00011
   1.02494  0.00108  0.00679  0.71643  0.000273  0.000121  0.037255    2.2544    1.6171  0.00006  0.00020  0.00007
   1.02714  0.00051  0.00467  0.60646  0.000262  0.000117  0.033244    2.2448    1.6186  0.00004  0.00016  0.00004
   1.02927  0.00015  0.00257  0.48803  0.000254  0.000113  0.027853    2.2350    1.6202  0.00003  0.00012  0.00002
   1.03131  0.00001  0.00053  0.36595  0.000250  0.000112  0.021233    2.2343    1.6203  0.00001  0.00009  0.00001
   1.03333  0.00005 -0.00149  0.24115  0.000247  0.000111  0.014227    2.2274    1.6214  0.00001  0.00006  0.00000
   1.03541  0.00030 -0.00355  0.11120  0.000249  0.000112  0.006483    2.2295    1.6210  0.00000  0.00003  0.00000
   1.03756  0.00077 -0.00565 -0.02100  0.000249  0.000112  0.001224    2.2295    1.6210  0.00000 -0.00001 -0.00000
   1.03978  0.00147 -0.00775 -0.15037  0.000260  0.000117  0.008377    2.2327    1.6205  0.00000 -0.00004 -0.00000
   1.04208  0.00240 -0.00985 -0.27251  0.000271  0.000121  0.014484    2.2382    1.6197  0.00001 -0.00007 -0.00000
   1.04447  0.00358 -0.01194 -0.38471  0.000288  0.000128  0.019137    2.2479    1.6181  0.00002 -0.00011 -0.00001
   1.04697  0.00500 -0.01400 -0.48507  0.000307  0.000136  0.022406    2.2570    1.6167  0.00003 -0.00015 -0.00003
   1.04959  0.00666 -0.01603 -0.57335  0.000330  0.000146  0.024373    2.2685    1.6149  0.00005 -0.00019 -0.00004
   1.05235  0.00855 -0.01802 -0.65005  0.000356  0.000156  0.025327    2.2802    1.6132  0.00007 -0.00023 -0.00007
   1.05525  0.01069 -0.01999 -0.71631  0.000386  0.000168  0.025504    2.2926    1.6113  0.00009 -0.00028 -0.00010
   1.05834  0.01309 -0.02193 -0.77339  0.000417  0.000181  0.025133    2.3052    1.6095  0.00011 -0.00032 -0.00013
   1.06163  0.01576 -0.02386 -0.82258  0.000452  0.000195  0.024392    2.3178    1.6077  0.00013 -0.00037 -0.00017
   1.06514  0.01871 -0.02577 -0.86506  0.000489  0.000210  0.023415    2.3304    1.6059  0.00016 -0.00042 -0.00022
   1.06892  0.02197 -0.02767 -0.90187  0.000529  0.000226  0.022294    2.3429    1.6042  0.00018 -0.00048 -0.00027
   1.07300  0.02558 -0.02957 -0.93386  0.000572  0.000243  0.021098    2.3554    1.6025  0.00021 -0.00053 -0.00032
   1.07744  0.02959 -0.03148 -0.96177  0.000618  0.000261  0.019872    2.3677    1.6008  0.00024 -0.00059 -0.00037
   1.08227  0.03403 -0.03339 -0.98619  0.000668  0.000281  0.018643    2.3799    1.5992  0.00027 -0.00066 -0.00043
   1.08758  0.03897 -0.03533 -1.00760  0.000721  0.000301  0.017433    2.3921    1.5976  0.00031 -0.00073 -0.00049
   1.09344  0.04449 -0.03728 -1.02637  0.000778  0.000324  0.016251    2.4044    1.5961  0.00034 -0.00080 -0.00056
   1.09992  0.05067 -0.03925 -1.04281  0.000840  0.000348  0.015106    2.4167    1.5946  0.00038 -0.00088 -0.00063
   1.10713  0.05760 -0.04124 -1.05714  0.000907  0.000373  0.014003    2.4291    1.5930  0.00042 -0.00096 -0.00070
   1.11517  0.06538 -0.04324 -1.06951  0.000980  0.000401  0.012945    2.4418    1.5915  0.00046 -0.00105 -0.00078
   1.12411  0.07410 -0.04523 -1.08004  0.001059  0.000431  0.011937    2.4548    1.5900  0.00050 -0.00114 -0.00086
   1.13405  0.08384 -0.04719 -1.08881  0.001144  0.000463  0.010982    2.4682    1.5884  0.00055 -0.00125 -0.00095
   1.14501  0.09464 -0.04909 -1.09588  0.001236  0.000498  0.010083    2.4821    1.5868  0.00060 -0.00135 -0.00104
   1.15699  0.10648 -0.05090 -1.10132  0.001334  0.000534  0.009245    2.4965    1.5852  0.00065 -0.00147 -0.00113
   1.16992  0.11931 -0.05256 -1.10522  0.001438  0.000572  0.008469    2.5116    1.5836  0.00070 -0.00159 -0.00122
   1.18372  0.13302 -0.05406 -1.10770  0.001547  0.000612  0.007756    2.5273    1.5819  0.00075 -0.00171 -0.00132
   1.19826  0.14750 -0.05536 -1.10890  0.001661  0.000653  0.007103    2.5437    1.5802  0.00080 -0.00184 -0.00141
   1.21341  0.16262 -0.05646 -1.10898  0.001779  0.000695  0.006508    2.5609    1.5785  0.00085 -0.00197 -0.00150
   1.22907  0.17825 -0.05734 -1.10810  0.001901  0.000737  0.005964    2.5790    1.5767  0.00090 -0.00211 -0.00158
   1.24513  0.19430 -0.05800 -1.10639  0.002026  0.000780  0.005466    2.5981    1.5748  0.00095 -0.00224 -0.00166
   1.26153  0.21069 -0.05846 -1.10398  0.002155  0.000823  0.005009    2.6184    1.5730  0.00100 -0.00238 -0.00174
   1.27820  0.22735 -0.05872 -1.10097  0.002287  0.000866  0.004588    2.6401    1.5710  0.00105 -0.00252 -0.00182
   1.29510  0.24425 -0.05879 -1.09745  0.002425  0.000910  0.004197    2.6634    1.5690  0.00110 -0.00266 -0.00189
   1.31219  0.26135 -0.05867 -1.09350  0.002567  0.000955  0.003833    2.6885    1.5669  0.00114 -0.00281 -0.00196
   1.32945  0.27861 -0.05839 -1.08917  0.002714  0.000999  0.003490    2.7158    1.5647  0.00119 -0.00296 -0.00202
   1.34687  0.29602 -0.05795 -1.08451  0.002868  0.001045  0.003166    2.7459    1.5624  0.00123 -0.00311 -0.00208
   1.36441  0.31355 -0.05737 -1.07955  0.003031  0.001090  0.002857    2.7792    1.5599  0.00127 -0.00327 -0.00214
   1.38208  0.33120 -0.05664 -1.07433  0.003202  0.001137  0.002561    2.8166    1.5574  0.00131 -0.00344 -0.00220
   1.39984  0.34895 -0.05578 -1.06888  0.003386  0.001184  0.002273    2.8589    1.5546  0.00135 -0.00362 -0.00225
   1.41771  0.36679 -0.05481 -1.06322  0.003583  0.001232  0.001993    2.9076    1.5517  0.00139 -0.00381 -0.00230
   1.43567  0.38471 -0.05371 -1.05737  0.003798  0.001281  0.001718    2.9643    1.5486  0.00143 -0.00402 -0.00235
   1.45370  0.40271 -0.05252 -1.05138  0.004035  0.001331  0.001446    3.0311    1.5454  0.00147 -0.00424 -0.00239
   1.47181  0.42077 -0.05122 -1.04530  0.004299  0.001382  0.001177    3.1108    1.5420  0.00151 -0.00449 -0.00243
   1.48999  0.43890 -0.04983 -1.03920  0.004596  0.001433  0.000913    3.2067    1.5386  0.00155 -0.00478 -0.00247
   1.50823  0.45708 -0.04835 -1.03316  0.004933  0.001484  0.000655    3.3229    1.5353  0.00158 -0.00510 -0.00251
   1.52653  0.47531 -0.04680 -1.02733  0.005318  0.001535  0.000410    3.4639    1.5324  0.00162 -0.00546 -0.00255
   1.54488  0.49359 -0.04516 -1.02181  0.005758  0.001584  0.000187    3.6343    1.5300  0.00165 -0.00588 -0.00259
   1.56329  0.51191 -0.04346 -1.01674  0.006259  0.001631 -0.000006    3.8380    1.5286  0.00169 -0.00636 -0.00262
   1.58173  0.53027 -0.04169 -1.01216  0.006827  0.001675 -0.000158    4.0770    1.5280  0.00172 -0.00691 -0.00265
   1.60022  0.54867 -0.03987 -1.00803  0.007464  0.001716 -0.000264    4.3503    1.5280  0.00174 -0.00752 -0.00269
   1.61874  0.56710 -0.03798 -1.00435  0.008170  0.001754 -0.000324    4.6570    1.5283  0.00177 -0.00821 -0.00272
   1.63730  0.58555 -0.03604 -1.00116  0.008946  0.001790 -0.000348    4.9991    1.5292  0.00179 -0.00896 -0.00275
   1.65589  0.60403 -0.03405 -0.99846  0.009792  0.001821 -0.000349    5.3760    1.5309  0.00182 -0.00978 -0.00278
   1.67450  0.62254 -0.03201 -0.99619  0.010704  0.001850 -0.000339    5.7863    1.5333  0.00184 -0.01066 -0.00280
   1.69314  0.64106 -0.02993 -0.99431  0.011678  0.001875 -0.000325    6.2283    1.5365  0.00185 -0.01161 -0.00283
   1.71179  0.65959 -0.02781 -0.99275  0.012710  0.001897 -0.000312    6.6997    1.5403  0.00187 -0.01262 -0.00286
   1.73046  0.67813 -0.02565 -0.99145  0.013794  0.001916 -0.000301    7.1980    1.5449  0.00188 -0.01368 -0.00289
   1.74912  0.69667 -0.02346 -0.99038  0.014926  0.001933 -0.000293    7.7207    1.5501  0.00190 -0.01478 -0.00291
   1.76778  0.71519 -0.02123 -0.98950  0.016099  0.001948 -0.000286    8.2651    1.5558  0.00191 -0.01593 -0.00294
   1.78641  0.73368 -0.01897 -0.98876  0.017307  0.001960 -0.000280    8.8280    1.5621  0.00192 -0.01711 -0.00296
   1.80497  0.75210 -0.01669 -0.98815  0.018541  0.001971 -0.000276    9.4055    1.5687  0.00192 -0.01832 -0.00298
   1.82338  0.77037 -0.01439 -0.98765  0.019791  0.001981 -0.000272    9.9930    1.5758  0.00193 -0.01955 -0.00301
   1.84154  0.78838 -0.01210 -0.98723  0.021040  0.001988 -0.000269   10.5813    1.5830  0.00194 -0.02077 -0.00303
   1.85923  0.80593 -0.00985 -0.98688  0.022281  0.001995 -0.000266   11.1688    1.5904  0.00194 -0.02199 -0.00305
   1.87638  0.82296 -0.00786 -0.98648  0.023252  0.002003 -0.000264   11.6059    1.5960  0.00195 -0.02294 -0.00307
   1.89323  0.83972 -0.00614 -0.98601  0.023949  0.002014 -0.000262   11.8895    1.5997  0.00196 -0.02361 -0.00309
   1.90990  0.85632 -0.00466 -0.98547  0.024396  0.002028 -0.000259   12.0317    1.6016  0.00197 -0.02404 -0.00311
   1.92643  0.87282 -0.00343 -0.98484  0.024598  0.002044 -0.000257   12.0366    1.6016  0.00198 -0.02423 -0.00313
   1.94284  0.88920 -0.00243 -0.98413  0.024556  0.002062 -0.000255   11.9079    1.5999  0.00200 -0.02417 -0.00314
   1.95909  0.90542 -0.00166 -0.98332  0.024272  0.002083 -0.000253   11.6499    1.5966  0.00201 -0.02387 -0.00316
   1.97508  0.92141 -0.00111 -0.98242  0.023746  0.002107 -0.000251   11.2686    1.5917  0.00203 -0.02333 -0.00318
   1.99069  0.93701 -0.00078 -0.98141  0.022987  0.002134 -0.000248   10.7738    1.5854  0.00205 -0.02256 -0.00320
   2.00570  0.95202 -0.00065 -0.98031  0.022006  0.002162 -0.000247   10.1788    1.5781  0.00208 -0.02157 -0.00321
   2.01986  0.96618 -0.00070 -0.97910  0.020823  0.002192 -0.000245    9.5002    1.5699  0.00210 -0.02039 -0.00323
   2.03290  0.97922 -0.00089 -0.96841  0.019594  0.002463 -0.000206    7.9537    1.5728  0.00231 -0.01897 -0.00352
   2.04463  0.99095 -0.00117 -0.94783  0.018438  0.002991 -0.000195    6.1641    1.5473  0.00269 -0.01748 -0.00394
   2.05369  1.00000 -0.00147 -0.93136  0.017198  0.003416 -0.000170    5.0339    1.5296  0.00296 -0.01602 -0.00422
   2.05369  1.00010 -0.00002  0.93136  0.037140  0.009040  0.000000    4.1085
   2.06273  1.00899 -0.00168  0.92437  0.035343  0.009453  0.000000    3.7390
   2.07299  1.01913 -0.00320  0.91445  0.032938  0.010032  0.000000    3.2834
   2.08461  1.03065 -0.00474  0.90660  0.030248  0.010481  0.000000    2.8860
   2.09778  1.04373 -0.00635  0.90088  0.027378  0.010798  0.000000    2.5354
   2.11272  1.05856 -0.00803  0.89812  0.024453  0.010944  0.000000    2.2343
   2.12965  1.07540 -0.00979  0.89888  0.021618  0.010907  0.000000    1.9821
   2.14884  1.09450 -0.01164  0.90315  0.019016  0.010708  0.000000    1.7759
   2.17059  1.11616 -0.01360  0.91029  0.016753  0.010401  0.000000    1.6107
   2.19525  1.14074 -0.01567  0.91922  0.014873  0.010047  0.000000    1.4803
   2.22320  1.16860 -0.01785  0.92876  0.013364  0.009697  0.000000    1.3781
   2.25488  1.20020 -0.02015  0.93805  0.012174  0.009381  0.000000    1.2978
   2.29079  1.23603 -0.02259  0.94657  0.011242  0.009108  0.000000    1.2344
   2.33150  1.27666 -0.02516  0.95415  0.010511  0.008878  0.000000    1.1840
   2.37765  1.32272 -0.02787  0.96079  0.009937  0.008685  0.000000    1.1441
   2.42996  1.37496 -0.03074  0.96656  0.009484  0.008524  0.000000    1.1126
   2.48925  1.43417 -0.03377  0.97155  0.009126  0.008389  0.000000    1.0879
   2.55647  1.50131 -0.03697  0.97586  0.008843  0.008275  0.000000    1.0686
